len(Wave)                Reflectance
2.810000000000000000e+02 5.727681630945016117e-02
2.815000000000000000e+02 5.702427962327097366e-02
2.820000000000000000e+02 5.666870650154399308e-02
2.825000000000000000e+02 5.618415237145422958e-02
2.830000000000000000e+02 5.570430990292979390e-02
2.835000000000000000e+02 5.522919371262825783e-02
2.840000000000000000e+02 5.475805979027338621e-02
2.845000000000000000e+02 5.429244717563403572e-02
2.850000000000000000e+02 5.383160392065065164e-02
2.855000000000000000e+02 5.359890651127024314e-02
2.860000000000000000e+02 5.337700936500092835e-02
2.865000000000000000e+02 5.315552494993819321e-02
2.870000000000000000e+02 5.293592230697691248e-02
2.875000000000000000e+02 5.271746850772907750e-02
2.880000000000000000e+02 5.250016599215261148e-02
2.885000000000000000e+02 5.231816598272118896e-02
2.890000000000000000e+02 5.221080002758198002e-02
2.895000000000000000e+02 5.210435648002186004e-02
2.900000000000000000e+02 5.200023250322226981e-02
2.905000000000000000e+02 5.189702284680870054e-02
2.910000000000000000e+02 5.179613347926146499e-02
2.915000000000000000e+02 5.169615061245624865e-02
2.920000000000000000e+02 5.149088815376516581e-02
2.925000000000000000e+02 5.119563249635463581e-02
2.930000000000000000e+02 5.090346335585183707e-02
2.935000000000000000e+02 5.061370396766445151e-02
2.940000000000000000e+02 5.032570015723807078e-02
2.945000000000000000e+02 5.004079181072691035e-02
2.950000000000000000e+02 4.975832017899444598e-02
2.955000000000000000e+02 4.948217214212875109e-02
2.960000000000000000e+02 4.921161817698729152e-02
2.965000000000000000e+02 4.894277588001458984e-02
2.970000000000000000e+02 4.867693201800319530e-02
2.975000000000000000e+02 4.841345782190816655e-02
2.980000000000000000e+02 4.815174731431177274e-02
2.985000000000000000e+02 4.789305549759258901e-02
2.990000000000000000e+02 4.769606999919010631e-02
2.995000000000000000e+02 4.756877716244879012e-02
3.000000000000000000e+02 4.744570372886582760e-02
3.005000000000000000e+02 4.732950712933581966e-02
3.010000000000000000e+02 4.721827007805247389e-02
3.015000000000000000e+02 4.711238745186024229e-02
3.020000000000000000e+02 4.701277149855535159e-02
3.025000000000000000e+02 4.698878416060173202e-02
3.030000000000000000e+02 4.725008607938695204e-02
3.035000000000000000e+02 4.751458732860320416e-02
3.040000000000000000e+02 4.778269584876550929e-02
3.045000000000000000e+02 4.805468388673028723e-02
3.050000000000000000e+02 4.832997649312682775e-02
3.055000000000000000e+02 4.860801829442224636e-02
3.060000000000000000e+02 4.888903143576824734e-02
3.065000000000000000e+02 4.899562198383229650e-02
3.070000000000000000e+02 4.903378971136038156e-02
3.075000000000000000e+02 4.907246145965279277e-02
3.080000000000000000e+02 4.911163455506057512e-02
3.085000000000000000e+02 4.915130561681430033e-02
3.090000000000000000e+02 4.919147140411988389e-02
3.095000000000000000e+02 4.923212707044983399e-02
3.100000000000000000e+02 4.925768112970908136e-02
3.105000000000000000e+02 4.911172447945447855e-02
3.110000000000000000e+02 4.897079283589969578e-02
3.115000000000000000e+02 4.883381559395596344e-02
3.120000000000000000e+02 4.870068377443535074e-02
3.125000000000000000e+02 4.857193256475496324e-02
3.130000000000000000e+02 4.844841533807747042e-02
3.135000000000000000e+02 4.832859317448114089e-02
3.140000000000000000e+02 4.823628871464187562e-02
3.145000000000000000e+02 4.822759744944292437e-02
3.150000000000000000e+02 4.822498332042033514e-02
3.155000000000000000e+02 4.822686113380644790e-02
3.160000000000000000e+02 4.823370926047555046e-02
3.165000000000000000e+02 4.824597891613292139e-02
3.170000000000000000e+02 4.826214336193401094e-02
3.175000000000000000e+02 4.828466328272000563e-02
3.180000000000000000e+02 4.829217835573524492e-02
3.185000000000000000e+02 4.821287469546465393e-02
3.190000000000000000e+02 4.813452924047546821e-02
3.195000000000000000e+02 4.805704308831984517e-02
3.200000000000000000e+02 4.798030719038091918e-02
3.205000000000000000e+02 4.790423242126414655e-02
3.210000000000000000e+02 4.782870262711494402e-02
3.215000000000000000e+02 4.775359584737276508e-02
3.220000000000000000e+02 4.767846792167660525e-02
3.225000000000000000e+02 4.753828455115547552e-02
3.230000000000000000e+02 4.739568743931908690e-02
3.235000000000000000e+02 4.725687011864858345e-02
3.240000000000000000e+02 4.712111083153964347e-02
3.245000000000000000e+02 4.698852681302580908e-02
3.250000000000000000e+02 4.685911062298923901e-02
3.255000000000000000e+02 4.673211940325566055e-02
3.260000000000000000e+02 4.660752807413841292e-02
3.265000000000000000e+02 4.650083186766938020e-02
3.270000000000000000e+02 4.641413759781012893e-02
3.275000000000000000e+02 4.632586248249875860e-02
3.280000000000000000e+02 4.623588866267229480e-02
3.285000000000000000e+02 4.614411008449440660e-02
3.290000000000000000e+02 4.604980258120777714e-02
3.295000000000000000e+02 4.595276728305976860e-02
3.300000000000000000e+02 4.585294023589197437e-02
3.305000000000000000e+02 4.574959050582903808e-02
3.310000000000000000e+02 4.564260337606933920e-02
3.315000000000000000e+02 4.542098196251750930e-02
3.320000000000000000e+02 4.517209579470213981e-02
3.325000000000000000e+02 4.491426212397198886e-02
3.330000000000000000e+02 4.464896804867973107e-02
3.335000000000000000e+02 4.437471039471737461e-02
3.340000000000000000e+02 4.408994220600973707e-02
3.345000000000000000e+02 4.379625923731775977e-02
3.350000000000000000e+02 4.349243250160731572e-02
3.355000000000000000e+02 4.320561526662889534e-02
3.360000000000000000e+02 4.291790336932526512e-02
3.365000000000000000e+02 4.262289536714533589e-02
3.370000000000000000e+02 4.232062988330059089e-02
3.375000000000000000e+02 4.201126887380110531e-02
3.380000000000000000e+02 4.169489109500732621e-02
3.385000000000000000e+02 4.137164009579293728e-02
3.390000000000000000e+02 4.104206220053661230e-02
3.395000000000000000e+02 4.070644810031918970e-02
3.400000000000000000e+02 4.031301162203158872e-02
3.405000000000000000e+02 3.989185986770479170e-02
3.410000000000000000e+02 3.947918672946326701e-02
3.415000000000000000e+02 3.907540441432359735e-02
3.420000000000000000e+02 3.868637437242238020e-02
3.425000000000000000e+02 3.831286967497061352e-02
3.430000000000000000e+02 3.795533555131786613e-02
3.435000000000000000e+02 3.761938763821930098e-02
3.440000000000000000e+02 3.730608042458286033e-02
3.445000000000000000e+02 3.700904246417617560e-02
3.450000000000000000e+02 3.670610288110445762e-02
3.455000000000000000e+02 3.642307468977234314e-02
3.460000000000000000e+02 3.616437331566134394e-02
3.465000000000000000e+02 3.593153509814180774e-02
3.470000000000000000e+02 3.572505433954605708e-02
3.475000000000000000e+02 3.554768480030419397e-02
3.480000000000000000e+02 3.540137952219543638e-02
3.485000000000000000e+02 3.529175544953731120e-02
3.490000000000000000e+02 3.521626163806742399e-02
3.495000000000000000e+02 3.520028220480314607e-02
3.500000000000000000e+02 3.524306155369683752e-02
3.505000000000000000e+02 3.532405620625884979e-02
3.510000000000000000e+02 3.544260503580583949e-02
3.515000000000000000e+02 3.559838166771706752e-02
3.520000000000000000e+02 3.579255961192701757e-02
3.525000000000000000e+02 3.602396107346442222e-02
3.530000000000000000e+02 3.629286213025646052e-02
3.535000000000000000e+02 3.659754933912024583e-02
3.540000000000000000e+02 3.693853226103129689e-02
3.545000000000000000e+02 3.731020664765312411e-02
3.550000000000000000e+02 3.769204359513284724e-02
3.555000000000000000e+02 3.807819366246854853e-02
3.560000000000000000e+02 3.846711146774679096e-02
3.565000000000000000e+02 3.885562903749058272e-02
3.570000000000000000e+02 3.924153657132876949e-02
3.575000000000000000e+02 3.962177323407180263e-02
3.580000000000000000e+02 3.999537396067801703e-02
3.585000000000000000e+02 4.035845755884898828e-02
3.590000000000000000e+02 4.070802866497351402e-02
3.595000000000000000e+02 4.105097357265780761e-02
3.600000000000000000e+02 4.140596204267794900e-02
3.605000000000000000e+02 4.174227494897547047e-02
3.610000000000000000e+02 4.206008525083487076e-02
3.615000000000000000e+02 4.235909473374811773e-02
3.620000000000000000e+02 4.263326575831499071e-02
3.625000000000000000e+02 4.288361272241577454e-02
3.630000000000000000e+02 4.310565342732554373e-02
3.635000000000000000e+02 4.329486468648514191e-02
3.640000000000000000e+02 4.345259208947398200e-02
3.645000000000000000e+02 4.357364075113287494e-02
3.650000000000000000e+02 4.361946763078272671e-02
3.655000000000000000e+02 4.361777716021702361e-02
3.660000000000000000e+02 4.358933542881865408e-02
3.665000000000000000e+02 4.352915294689427284e-02
3.670000000000000000e+02 4.344040068350969730e-02
3.675000000000000000e+02 4.332344044319018372e-02
3.680000000000000000e+02 4.317452392107248155e-02
3.685000000000000000e+02 4.299772367173139431e-02
3.690000000000000000e+02 4.278972492292146268e-02
3.695000000000000000e+02 4.254962090708055283e-02
3.700000000000000000e+02 4.228104463536392493e-02
3.705000000000000000e+02 4.199429195130342102e-02
3.710000000000000000e+02 4.168149804201632530e-02
3.715000000000000000e+02 4.133829376473367040e-02
3.720000000000000000e+02 4.095653742845632717e-02
3.725000000000000000e+02 4.054363726193691703e-02
3.730000000000000000e+02 4.009913584268792047e-02
3.735000000000000000e+02 3.961747859362538954e-02
3.740000000000000000e+02 3.910223052598393173e-02
3.745000000000000000e+02 3.855390773437542690e-02
3.750000000000000000e+02 3.797357152015638782e-02
3.755000000000000000e+02 3.735936581720664118e-02
3.760000000000000000e+02 3.652704726928041740e-02
3.765000000000000000e+02 3.552414791700858610e-02
3.770000000000000000e+02 3.447772041624033723e-02
3.775000000000000000e+02 3.340208846932742059e-02
3.780000000000000000e+02 3.229556266862643188e-02
3.785000000000000000e+02 3.115824014676465969e-02
3.790000000000000000e+02 3.000252460634889040e-02
3.795000000000000000e+02 2.882806380581304576e-02
3.800000000000000000e+02 2.763809234374924734e-02
3.805000000000000000e+02 2.644381330717924736e-02
3.810000000000000000e+02 2.524745894853629158e-02
3.815000000000000000e+02 2.405230197311125639e-02
3.820000000000000000e+02 2.287925435167769903e-02
3.825000000000000000e+02 2.171539843713138004e-02
3.830000000000000000e+02 2.057032965175543265e-02
3.835000000000000000e+02 1.945250403436788247e-02
3.840000000000000000e+02 1.836197394599868582e-02
3.845000000000000000e+02 1.731346973893346450e-02
3.850000000000000000e+02 1.630499569639843813e-02
3.855000000000000000e+02 1.534237592288188907e-02
3.860000000000000000e+02 1.443418205120987514e-02
3.865000000000000000e+02 1.358758914045294676e-02
3.870000000000000000e+02 1.281384765502480670e-02
3.875000000000000000e+02 1.213408762368168615e-02
3.880000000000000000e+02 1.166952404678331043e-02
3.885000000000000000e+02 1.125327360372222960e-02
3.890000000000000000e+02 1.089454513222576013e-02
3.895000000000000000e+02 1.059100803823103537e-02
3.900000000000000000e+02 1.034842073026624384e-02
3.905000000000000000e+02 1.015168407649767214e-02
3.910000000000000000e+02 1.001632622803269763e-02
3.915000000000000000e+02 9.945086490077956198e-03
3.920000000000000000e+02 9.937479213246983370e-03
3.925000000000000000e+02 1.000105823569019496e-02
3.930000000000000000e+02 1.013224337443308955e-02
3.935000000000000000e+02 1.033781703476883453e-02
3.940000000000000000e+02 1.059642671507283508e-02
3.945000000000000000e+02 1.093866320125696547e-02
3.950000000000000000e+02 1.136086952538204430e-02
3.955000000000000000e+02 1.186119718719485204e-02
3.960000000000000000e+02 1.244330938653168996e-02
3.965000000000000000e+02 1.310505666621442425e-02
3.970000000000000000e+02 1.384510550030330911e-02
3.975000000000000000e+02 1.466628164402826451e-02
3.980000000000000000e+02 1.556925179508055618e-02
3.985000000000000000e+02 1.655174276762127333e-02
3.990000000000000000e+02 1.760845135887981888e-02
3.995000000000000000e+02 1.874709477311896008e-02
4.000000000000000000e+02 1.996395968130389165e-02
4.010000000000000000e+02 2.260491302368458286e-02
4.020000000000000000e+02 2.546425478303304679e-02
4.030000000000000000e+02 2.850569352035745019e-02
4.040000000000000000e+02 3.170248017152839382e-02
4.050000000000000000e+02 3.502826229282395010e-02
4.060000000000000000e+02 3.843516324164755055e-02
4.070000000000000000e+02 4.188996978139852140e-02
4.080000000000000000e+02 4.539438467181335785e-02
4.090000000000000000e+02 4.888382032254724729e-02
4.100000000000000000e+02 5.228976402844104365e-02
4.110000000000000000e+02 5.558137376641500427e-02
4.120000000000000000e+02 5.872080431270670225e-02
4.130000000000000000e+02 6.168563226896631863e-02
4.140000000000000000e+02 6.464854306033712694e-02
4.150000000000000000e+02 6.732109981050977965e-02
4.160000000000000000e+02 6.958600780936279040e-02
4.170000000000000000e+02 7.139809124749382785e-02
4.180000000000000000e+02 7.275210958130566563e-02
4.190000000000000000e+02 7.360885114499837734e-02
4.200000000000000000e+02 7.397947324273088099e-02
4.210000000000000000e+02 7.389469117179027491e-02
4.220000000000000000e+02 7.348751578143766783e-02
4.230000000000000000e+02 7.273546102525528523e-02
4.240000000000000000e+02 7.166602603428177953e-02
4.250000000000000000e+02 7.027778902146815387e-02
4.260000000000000000e+02 6.858266856621864083e-02
4.270000000000000000e+02 6.659523772500390570e-02
4.280000000000000000e+02 6.430147381298993714e-02
4.290000000000000000e+02 6.171135504180377124e-02
4.300000000000000000e+02 5.889348667760059552e-02
4.310000000000000000e+02 5.588669560438490336e-02
4.320000000000000000e+02 5.270021572340295030e-02
4.330000000000000000e+02 4.936731680115647586e-02
4.340000000000000000e+02 4.592814615024264774e-02
4.350000000000000000e+02 4.239794065722556765e-02
4.360000000000000000e+02 3.883866717076264047e-02
4.370000000000000000e+02 3.526148460755765268e-02
4.380000000000000000e+02 3.170369177458629006e-02
4.390000000000000000e+02 2.819671027368212887e-02
4.400000000000000000e+02 2.476829507502603667e-02
4.410000000000000000e+02 2.145636588948333229e-02
4.420000000000000000e+02 1.829642782310672566e-02
4.430000000000000000e+02 1.531512159213268241e-02
4.440000000000000000e+02 1.257388366912469760e-02
4.450000000000000000e+02 1.005504111807136933e-02
4.460000000000000000e+02 7.790786412097173291e-03
4.470000000000000000e+02 5.796529270295029332e-03
4.480000000000000000e+02 4.095300253188685798e-03
4.490000000000000000e+02 2.698888776991917402e-03
4.500000000000000000e+02 1.623316932938464628e-03
4.510000000000000000e+02 8.596802608217181006e-04
4.520000000000000000e+02 4.247873194501856887e-04
4.530000000000000000e+02 4.837291629650464220e-04
4.540000000000000000e+02 1.033326229523539490e-03
4.550000000000000000e+02 2.063942263420728406e-03
4.560000000000000000e+02 3.559823606084472694e-03
4.570000000000000000e+02 5.494853511517682441e-03
4.580000000000000000e+02 7.851039842146047970e-03
4.590000000000000000e+02 1.059327809312703671e-02
4.600000000000000000e+02 1.319491847686910836e-02
4.610000000000000000e+02 1.590300004738758044e-02
4.620000000000000000e+02 1.879943472670317015e-02
4.630000000000000000e+02 2.186760733808353063e-02
4.640000000000000000e+02 2.508307450283520784e-02
4.650000000000000000e+02 2.841427458199314096e-02
4.660000000000000000e+02 3.184782713106895646e-02
4.670000000000000000e+02 3.535735797574156292e-02
4.680000000000000000e+02 3.886524581032602815e-02
4.690000000000000000e+02 4.235071100640230846e-02
4.700000000000000000e+02 4.583109566133169305e-02
4.710000000000000000e+02 4.930320065929683082e-02
4.720000000000000000e+02 5.273536207135553350e-02
4.730000000000000000e+02 5.612416024540352322e-02
4.740000000000000000e+02 5.943698160677561571e-02
4.750000000000000000e+02 6.267608399460058988e-02
4.760000000000000000e+02 6.580836064217675252e-02
4.770000000000000000e+02 6.875380258053560845e-02
4.780000000000000000e+02 7.109022078936938493e-02
4.790000000000000000e+02 7.335469859735802012e-02
4.800000000000000000e+02 7.552041878927759355e-02
4.810000000000000000e+02 7.759163878975222639e-02
4.820000000000000000e+02 7.956392612025091349e-02
4.830000000000000000e+02 8.143373880816708044e-02
4.840000000000000000e+02 8.319735385191708021e-02
4.850000000000000000e+02 8.485117214169225763e-02
4.860000000000000000e+02 8.640478926997463560e-02
4.870000000000000000e+02 8.804486906121074263e-02
4.880000000000000000e+02 8.957799034773407387e-02
4.890000000000000000e+02 9.092819335387181123e-02
4.900000000000000000e+02 9.209413937639945869e-02
4.910000000000000000e+02 9.307344444017967566e-02
4.920000000000000000e+02 9.386650077429248284e-02
4.930000000000000000e+02 9.447259553485921890e-02
4.940000000000000000e+02 9.489063029698709129e-02
4.950000000000000000e+02 9.512102593086074753e-02
4.960000000000000000e+02 9.517760009633068063e-02
4.970000000000000000e+02 9.508068977956889156e-02
4.980000000000000000e+02 9.480863079101731206e-02
4.990000000000000000e+02 9.436772535514348359e-02
5.000000000000000000e+02 9.375699267553656846e-02
5.010000000000000000e+02 9.298328923415540015e-02
5.020000000000000000e+02 9.205019141976192310e-02
5.030000000000000000e+02 9.096389903640123009e-02
5.040000000000000000e+02 8.973217766926994132e-02
5.050000000000000000e+02 8.835520724506346069e-02
5.060000000000000000e+02 8.684141051201398065e-02
5.070000000000000000e+02 8.526019202977398737e-02
5.080000000000000000e+02 8.355021255546679626e-02
5.090000000000000000e+02 8.172370933475936461e-02
5.100000000000000000e+02 7.978750644634838296e-02
5.110000000000000000e+02 7.774762038761583172e-02
5.120000000000000000e+02 7.561236077418415080e-02
5.130000000000000000e+02 7.339468315986551195e-02
5.140000000000000000e+02 7.109249189141131353e-02
5.150000000000000000e+02 6.870719440256062294e-02
5.160000000000000000e+02 6.627328369030152655e-02
5.170000000000000000e+02 6.405781634887040832e-02
5.180000000000000000e+02 6.212820873254540355e-02
5.190000000000000000e+02 6.014922662038749840e-02
5.200000000000000000e+02 5.812340394899714879e-02
5.210000000000000000e+02 5.605815661579612724e-02
5.220000000000000000e+02 5.395785470931280942e-02
5.230000000000000000e+02 5.182932460083688325e-02
5.240000000000000000e+02 4.967740436616496780e-02
5.250000000000000000e+02 4.751029208704810047e-02
5.260000000000000000e+02 4.533337241559683151e-02
5.270000000000000000e+02 4.314366111047627378e-02
5.280000000000000000e+02 4.077936445512610891e-02
5.290000000000000000e+02 3.815835812908927732e-02
5.300000000000000000e+02 3.558999853692518256e-02
5.310000000000000000e+02 3.309061414408657337e-02
5.320000000000000000e+02 3.066469655362228514e-02
5.330000000000000000e+02 2.834134052538384713e-02
5.340000000000000000e+02 2.613119658740177889e-02
5.350000000000000000e+02 2.402858168970167449e-02
5.360000000000000000e+02 2.204186387963850621e-02
5.370000000000000000e+02 2.017734225166381914e-02
5.380000000000000000e+02 1.844882882939482063e-02
5.390000000000000000e+02 1.685993343540040379e-02
5.400000000000000000e+02 1.535352443382936513e-02
5.410000000000000000e+02 1.399992433196600890e-02
5.420000000000000000e+02 1.279841075558196990e-02
5.430000000000000000e+02 1.177044998155304251e-02
5.440000000000000000e+02 1.090999097599557391e-02
5.450000000000000000e+02 1.022248769579502982e-02
5.460000000000000000e+02 9.708114528174301497e-03
5.470000000000000000e+02 9.368386816104501066e-03
5.480000000000000000e+02 9.197264640839687005e-03
5.490000000000000000e+02 9.205784976141464376e-03
5.500000000000000000e+02 9.384963461978267779e-03
5.510000000000000000e+02 9.733711267660937611e-03
5.520000000000000000e+02 1.007232921358591250e-02
5.530000000000000000e+02 1.050441728826692449e-02
5.540000000000000000e+02 1.103540563044599909e-02
5.550000000000000000e+02 1.166239802642879062e-02
5.560000000000000000e+02 1.238147726357453904e-02
5.570000000000000000e+02 1.318919952329783082e-02
5.580000000000000000e+02 1.408227583229683388e-02
5.590000000000000000e+02 1.505721556794537008e-02
5.600000000000000000e+02 1.610951727651677157e-02
